Wavelength,Cext,Qext,Csca,Qsca
360.0,7.910382825055699e-10,2.0802132197132304,4.3267252427064223e-10,1.1368678300913324
360.9812108559499,7.910741437187212e-10,2.0803487699087135,4.3268587058877097e-10,1.1369467208497497
361.9624217118998,7.911099451905224e-10,2.080482607881645,4.3269917393074055e-10,1.1370245517346875
362.9436325678497,7.911456940313914e-10,2.0806155553433867,4.3271245675292866e-10,1.1371020175494504
363.9248434237996,7.911814104980185e-10,2.0807491341577595,4.327257350939494e-10,1.1371796448633111
364.90605427974947,7.912171220907637e-10,2.0808850768808513,4.3273901793415977e-10,1.1372576987394818
365.8872651356994,7.912514984371802e-10,2.0810208308031135,4.328197088374682e-10,1.1371360223313536
366.8684759916493,7.912872209191095e-10,2.0811628203318984,4.328329264335719e-10,1.137212913442413
367.8496868475992,7.913229486786264e-10,2.0813074892469525,4.328461589723054e-10,1.1372905320122224
368.83089770354906,7.913586760714251e-10,2.081453985983549,4.328594146080189e-10,1.137369222332626
369.812108559499,7.913944046870263e-10,2.0816017845334835,4.3287270007022557e-10,1.137449228221203
370.7933194154489,7.91430145313226e-10,2.0817508339437807,4.3288601857789935e-10,1.1375305374144364
371.77453027139876,7.914659091013687e-10,2.081901018560259,4.328993702274718e-10,1.1376128658376559
372.75574112734864,7.915016991691667e-10,2.082051633802208,4.329127550489255e-10,1.1376958566799293
373.7369519832986,7.915375105519969e-10,2.0822015359160937,4.32926176304201e-10,1.137779360738258
374.71816283924846,7.915733366922333e-10,2.082349858294924,4.3293964059179583e-10,1.1378635331628342
375.69937369519835,7.916088179560216e-10,2.0824864940612957,4.330569094085074e-10,1.1382069930881369
376.68058455114823,7.916446074026778e-10,2.0826313147583533,4.3307040160653835e-10,1.1382913797153706
377.66179540709817,7.916804289808748e-10,2.082775865598788,4.3308393818295793e-10,1.1383768279731017
378.64300626304805,7.917162874186158e-10,2.0829204240797887,4.330975113311049e-10,1.1384632118759053
379.62421711899793,7.91752173641595e-10,2.0830646161466193,4.331111140184525e-10,1.138550500128766
380.6054279749478,7.917880679375311e-10,2.0832081277611243,4.331247410121471e-10,1.1386389051142032
381.58663883089775,7.918239510961034e-10,2.083351537794723,4.3313838952249e-10,1.1387288912725897
382.5678496868476,7.918598158933615e-10,2.083496484001702,4.3315205765763965e-10,1.1388209895350467
383.5490605427975,7.918956684603971e-10,2.0836448806086887,4.3316573952554136e-10,1.138915462466986
384.5302713987474,7.919315160124611e-10,2.08379770178111,4.331794231530881e-10,1.1390120720546242
385.51148225469734,7.919684447437275e-10,2.0839381093367617,4.3331004585787596e-10,1.1398784959500647
386.49269311064717,7.920043057039215e-10,2.0840974460643853,4.3332386592527013e-10,1.1399809123788673
387.4739039665971,7.920401386975013e-10,2.0842579882701298,4.33337663770008e-10,1.140083741455307
388.455114822547,7.92075923540297e-10,2.0844183355549033,4.333514256228478e-10,1.140186364950516
389.4363256784969,7.92111640793539e-10,2.0845777578117586,4.333651370208401e-10,1.1402883470936764
390.41753653444675,7.921472713227742e-10,2.084735669314437,4.3337878445078467e-10,1.1403893561905714
391.3987473903967,7.921828006160031e-10,2.0848915274498956,4.333923570859661e-10,1.1404891949190155
392.3799582463466,7.922182222530229e-10,2.085045214910468,4.3340584924880345e-10,1.1405879035701043
393.3611691022965,7.922535374189678e-10,2.085197271290079,4.3341926086713054e-10,1.140685748711938
394.34237995824634,7.922887524739553e-10,2.0853486451160235,4.3343259399710524e-10,1.1407830268572567
395.3235908141963,7.923272930687051e-10,2.085511010606143,4.335611131488356e-10,1.1421584979335624
396.30480167014616,7.923624066540197e-10,2.0856640260930543,4.3357462354953364e-10,1.1422618339011117
397.2860125260961,7.923974224926733e-10,2.0858168842790197,4.3358804115768254e-10,1.1423640009757672
398.2672233820459,7.924323369593968e-10,2.0859682912971995,4.336013650013217e-10,1.142464448221653
399.24843423799587,7.924671466146357e-10,2.0861168063257907,4.336145990939157e-10,1.142562788360917
400.22964509394575,7.925018531251396e-10,2.086261522639268,4.336277534229503e-10,1.1426589265878968
401.21085594989563,7.925364678181561e-10,2.086402472193223,4.336408431419435e-10,1.1427530942230357
402.1920668058455,7.925710102088914e-10,2.086540449731914,4.336538857646738e-10,1.1428457740773947
403.17327766179545,7.926055007992661e-10,2.0866765346162786,4.3366689809355766e-10,1.1429375662937198
404.15448851774534,7.926399574718976e-10,2.0868118451084725,4.3367989593629333e-10,1.1430291096360379
405.1356993736952,7.92678466064048e-10,2.086968558189363,4.338059842811308e-10,1.1448926580379377
406.1169102296451,7.927127832367222e-10,2.0871031386148085,4.3381929851399835e-10,1.1449917735398933
407.09812108559504,7.927471123613299e-10,2.0872399800912844,4.338326542113961e-10,1.1450924631959951
408.0793319415449,7.927814877519521e-10,2.0873800403328517,4.3384607466608797e-10,1.1451951561163
409.0605427974948,7.928159406457177e-10,2.0875238740753077,4.3385957890255237e-10,1.1452999719565604
410.0417536534447,7.928504869337449e-10,2.0876713992414015,4.3387318240472144e-10,1.1454066752867877
411.0229645093946,7.928851217614101e-10,2.087821763104168,4.338868870960962e-10,1.1455146100528069
412.0041753653445,7.929198232764074e-10,2.087973441476057,4.3390067629404014e-10,1.145622847744052
412.9853862212944,7.929545653984036e-10,2.088124687985747,4.339145314079361e-10,1.1457306191623258
413.9665970772443,7.929893312778233e-10,2.0882740930381214,4.339284442193241e-10,1.1458376207290137
414.9478079331942,7.930241128067059e-10,2.0884210228747793,4.3394240516480045e-10,1.1459439397149058
415.9290187891441,7.930625943069193e-10,2.0885802936600686,4.340778707010289e-10,1.1483356635686781
416.9102296450939,7.930974819022123e-10,2.088723141012661,4.340925963258434e-10,1.1484513919430634
417.89144050104386,7.931323226051277e-10,2.0888651372854485,4.3410729516713087e-10,1.1485673048969074
418.8726513569938,7.931670896518367e-10,2.0890070449983758,4.341219246513214e-10,1.1486837726790378
419.8538622129437,7.93201759122126e-10,2.089148996583128,4.34136451415989e-10,1.1488011707391415
420.8350730688935,7.932362851627089e-10,2.0892903780511967,4.3415086007066614e-10,1.1489197954621682
421.81628392484345,7.93270630555385e-10,2.0894309686882053,4.341651533225953e-10,1.1490398737500043
422.7974947807934,7.933048074541349e-10,2.0895719452128763,4.3417934400546035e-10,1.149161645663162
423.77870563674327,7.933388663844659e-10,2.0897152453673344,4.3419344989684834e-10,1.1492853766212945
424.7599164926931,7.933728641782254e-10,2.089862190907886,4.342074982174664e-10,1.149411325093068
425.74112734864303,7.934108924881102e-10,2.0900249615851587,4.343691749984692e-10,1.1524997745618977
426.722338204593,7.93444685762568e-10,2.090179272784412,4.3438392039661247e-10,1.1526437278479365
427.7035490605428,7.934785435952787e-10,2.090335772763203,4.3439878136318306e-10,1.1527905436535753
428.6847599164927,7.935125246554887e-10,2.090493247976003,4.3441383481523037e-10,1.1529396642509877
429.6659707724426,7.935466939215402e-10,2.0906509546314167,4.344291167729019e-10,1.1530902302573285
430.64718162839256,7.935811049153476e-10,2.0908087867915532,4.344446391344789e-10,1.1532416974091584
431.6283924843424,7.936157770938482e-10,2.0909670719275013,4.3446040905398174e-10,1.1533940569834806
432.60960334029227,7.936506843671301e-10,2.0911258403368467,4.3447642116807757e-10,1.1535474713282936
433.5908141962422,7.936857626760668e-10,2.091284497179979,4.3449265083268036e-10,1.1537019482521704
434.57202505219215,7.937209317947893e-10,2.09144250197635,4.345090531933261e-10,1.153857199022937
435.55323590814197,7.937598600484172e-10,2.0916299374786407,4.34716991644398e-10,1.1577953745773928
436.53444676409185,7.937953892147586e-10,2.091791574091071,4.347351807049348e-10,1.1579697702274012
437.5156576200418,7.938309277556201e-10,2.0919556445194076,4.3475333318568044e-10,1.1581430698932451
438.49686847599173,7.938663866984469e-10,2.0921210752815163,4.3477136735528525e-10,1.1583152467225368
439.47807933194156,7.939016375623903e-10,2.0922864156976835,4.347892432610067e-10,1.1584871774865155
440.45929018789144,7.939366124132195e-10,2.0924526982929432,4.3480694770535055e-10,1.1586601310098683
441.4405010438414,7.939713302037287e-10,2.0926230360921236,4.3482447205202837e-10,1.1588347318009946
442.42171189979126,7.940058476995785e-10,2.0927993830380065,4.3484180500815564e-10,1.1590102564037172
443.40292275574114,7.940401934495398e-10,2.092979796872503,4.348589277346562e-10,1.1591845285663356
444.384133611691,7.940743295242372e-10,2.093157740212464,4.3487581720936666e-10,1.1593543684857688
445.36534446764097,7.941137569815029e-10,2.0933997803720117,4.351502746237216e-10,1.1641912776799195
446.34655532359085,7.941471914985095e-10,2.093552107006951,4.3516833515743624e-10,1.1643638164739754
447.32776617954073,7.941803475307326e-10,2.093684890850176,4.3518620722411783e-10,1.16452562971774
448.3089770354906,7.942133163249658e-10,2.0938026675626835,4.352039715075153e-10,1.164679025093759
449.29018789144055,7.942461765138776e-10,2.093910780485354,4.352217209533594e-10,1.1648275328195576
450.27139874739044,7.942790193572071e-10,2.0940137417758082,4.3523956924066943e-10,1.1649747737917744
451.2526096033403,7.943119541221318e-10,2.0941151322917047,4.3525760836968627e-10,1.1651232113305816
452.2338204592902,7.943450580424924e-10,2.09421834541718,4.3527584903828073e-10,1.165273647147241
453.21503131524014,7.943783366495146e-10,2.094326437108754,4.3529423327697534e-10,1.1654255685566306
454.19624217118997,7.944117555505007e-10,2.094441335831999,4.353127002625191e-10,1.165577821632396
455.1774530271399,7.944490342242972e-10,2.0946090733723848,4.3565208022448353e-10,1.1708752016469635
456.1586638830898,7.944827296999801e-10,2.094739185927554,4.3567284285804027e-10,1.1710436976005594
457.1398747390397,7.945164060958308e-10,2.094874239530226,4.3569359824938523e-10,1.1712113613886472
458.12108559498955,7.945499459884759e-10,2.0950095826724544,4.357143851145819e-10,1.1713794351731026
459.1022964509395,7.945833373780945e-10,2.095140202331979,4.3573527232356994e-10,1.1715484994609595
460.0835073068894,7.946166634335194e-10,2.095262258267785,4.3575627174442644e-10,1.1717175435456564
461.0647181628393,7.946499866795721e-10,2.0953753367512835,4.3577731107421586e-10,1.1718845604679888
462.04592901878914,7.94683290267078e-10,2.0954825444731293,4.357982558062977e-10,1.172047742510347
463.0271398747391,7.947165047609694e-10,2.0955865701856022,4.358190241164551e-10,1.1722066571932805
464.00835073068896,7.947495887544245e-10,2.095687890825974,4.3583967580120023e-10,1.1723628279467018
464.9895615866389,7.947825611286498e-10,2.095786999684303,4.3586032719928267e-10,1.1725188905534578
465.9707724425887,7.948190734431815e-10,2.095916419573959,4.362932397423631e-10,1.178406078356031
466.95198329853866,7.948517815702685e-10,2.096009272758751,4.363165504911461e-10,1.1785842824883663
467.93319415448855,7.948842929244367e-10,2.0960989161291743,4.363398539518902e-10,1.1787626871307728
468.9144050104385,7.949167027120619e-10,2.0961892319588897,4.363631214641569e-10,1.1789392094206803
469.8956158663883,7.949492619609164e-10,2.096285988108286,4.3638640048751504e-10,1.1791134384358126
470.87682672233825,7.94982149601026e-10,2.0963915953478693,4.3640979530338737e-10,1.1792862726471445
471.85803757828813,7.950152875751413e-10,2.0965020099169025,4.364333554169389e-10,1.179458161567609
472.839248434238,7.950485007106375e-10,2.0966096368704736,4.364571390580484e-10,1.1796289499793338
473.8204592901879,7.950817238037125e-10,2.096709937943077,4.364812146952202e-10,1.1797986745037063
474.80167014613784,7.951149873424488e-10,2.096803806168632,4.3650554870959003e-10,1.1799676421384566
475.7828810020877,7.951518068705509e-10,2.0969074086100163,4.37066078691651e-10,1.1866488550739482
476.7640918580376,7.951854116450425e-10,2.0969925360960033,4.370940384188441e-10,1.1868358237436152
477.7453027139874,7.952188445050845e-10,2.097078296314792,4.3712176262726947e-10,1.187020510902329
478.7265135699374,7.952519441898372e-10,2.0971687455690873,4.371490818502038e-10,1.187202530432814
479.7077244258873,7.952845746311605e-10,2.0972638319855768,4.37175861249704e-10,1.1873819879742682
480.68893528183713,7.953166011624816e-10,2.097359236859377,4.372020070561659e-10,1.1875597707341279
481.6701461377871,7.953479197765472e-10,2.09745043006377,4.3722758905195896e-10,1.1877384364259647
482.651356993737,7.953785678951805e-10,2.097535398343482,4.372529257510939e-10,1.1879213590525346
483.6325678496869,7.954087793523927e-10,2.097616765411182,4.372782911633319e-10,1.1881101853565863
484.6137787056367,7.954388814826186e-10,2.097700450476438,4.373036672909808e-10,1.18830336617409
485.5949895615866,7.954714503627517e-10,2.097773504382374,4.3808623568993575e-10,1.196601775478568
486.5762004175366,7.955016092670245e-10,2.0978603371126576,4.3811541399231434e-10,1.196812147328872
487.5574112734865,7.95532022614124e-10,2.097941824092408,4.381445821726552e-10,1.1970138668390458
488.5386221294363,7.955626339403804e-10,2.0980197712125808,4.3817384978284264e-10,1.197210193889331
489.5198329853863,7.955933277598223e-10,2.0980973241864236,4.3820328309388646e-10,1.1974082798596823
490.5010438413362,7.956238504870881e-10,2.0981714810873813,4.382328819392131e-10,1.1976150843392814
491.48225469728607,7.956540364053968e-10,2.0982427632449587,4.382628168519188e-10,1.197836223443476
492.4634655532359,7.956841601350153e-10,2.0983215472830508,4.3829311828233804e-10,1.1980747521370414
493.4446764091858,7.957147022355196e-10,2.098419231682676,4.383237632908039e-10,1.1983314151537263
494.42588726513577,7.95745982222609e-10,2.0985449954178663,4.383550412761095e-10,1.1986070044536659
495.40709812108565,7.957773001194284e-10,2.0986642836185463,4.3935240591191105e-10,1.208086395741413
496.3883089770355,7.958104926659505e-10,2.0988661100621253,4.3939026013094423e-10,1.208426419218696
497.3695198329855,7.958447110415414e-10,2.099094391568084,4.394290205388808e-10,1.208774714030266
498.35073068893536,7.958801780309496e-10,2.0993410991199735,4.394688149829952e-10,1.2091279969378947
499.33194154488524,7.959170543388112e-10,2.099597537121569,4.395099732642613e-10,1.2094859474736996
500.31315240083507,7.959551435844629e-10,2.0998483249042272,4.3955282442956205e-10,1.2098485279504463
501.29436325678495,7.959941771143604e-10,2.1000806577745452,4.3959711420576184e-10,1.210212957406483
502.27557411273494,7.960337592154554e-10,2.10029141226161,4.396423537924862e-10,1.2105745439878435
503.25678496868477,7.960735005906505e-10,2.100483281093257,4.3968818064795556e-10,1.210929340374599
504.23799582463465,7.961131796254016e-10,2.100659050595975,4.3973391148480304e-10,1.211273530174811
505.21920668058465,7.961596184922977e-10,2.1008597129379143,4.4077740020351786e-10,1.2201539233014773
506.20041753653453,7.961991345412185e-10,2.1010215905751406,4.408266773512406e-10,1.2204995378057755
507.18162839248436,7.962372469201472e-10,2.101182661204269,4.40874600156512e-10,1.220838260870174
508.16283924843424,7.962730827437217e-10,2.101334396423463,4.409206294377583e-10,1.2211699031082113
509.1440501043841,7.963063411878165e-10,2.1014694893807,4.4096469982812577e-10,1.2214968133020252
510.1252609603341,7.963374553201166e-10,2.101592299457837,4.410071129509634e-10,1.221822880692734
511.10647181628394,7.963669139673384e-10,2.1017113208608063,4.4104820517857093e-10,1.2221501302838864
512.0876826722339,7.963954506046704e-10,2.1018348503169353,4.410882770741648e-10,1.2224790184897543
513.0688935281838,7.964236700919453e-10,2.101970246514447,4.4112741544641363e-10,1.2228084217802464
514.0501043841336,7.964518733642541e-10,2.1021245501924546,4.4116603431725536e-10,1.223139665792999
515.0313152400836,7.964808944341646e-10,2.10231975086148,4.4203241874375134e-10,1.2300093782340684
516.0125260960334,7.965091942436895e-10,2.102505553252407,4.420758917143127e-10,1.2303689218480676
516.9937369519832,7.965383232809901e-10,2.1026933652651065,4.421204096258e-10,1.230731534987533
517.9749478079333,7.965683422347961e-10,2.102878206986867,4.42165346023047e-10,1.231090661900951
518.9561586638831,7.965989643331692e-10,2.1030519965965833,4.422108452966451e-10,1.2314452376695646
519.937369519833,7.966299951263339e-10,2.1032113148076608,4.422574869459207e-10,1.2317995361653178
520.9185803757829,7.96661392729732e-10,2.10336028569446,4.4230496679230275e-10,1.2321545643448328
521.8997912317327,7.966932893210052e-10,2.1035078471448094,4.4235280951267635e-10,1.2325088322778706
522.8810020876828,7.967255503785179e-10,2.10366457796449,4.424009222689308e-10,1.2328617311393026
523.8622129436326,7.96757901431975e-10,2.1038373930651715,4.424490391012849e-10,1.2332129619539542
524.8434237995824,7.967905637739924e-10,2.1040267390019967,4.4249718474786795e-10,1.233563466646174
525.8246346555325,7.968248358465782e-10,2.1042399523236557,4.43367815238089e-10,1.239915671731219
526.8058455114823,7.968587833329799e-10,2.1044223807791176,4.4342062023194747e-10,1.240272868337484
527.7870563674321,7.968926278124295e-10,2.1045740669328916,4.4347341914561477e-10,1.240612904190135
528.768267223382,7.969257141984146e-10,2.1046896065468825,4.4352602288741726e-10,1.240932287688093
529.7494780793319,7.969582930550618e-10,2.1047787757358343,4.4357887436339646e-10,1.2412360535517026
530.7306889352819,7.969909615415526e-10,2.1048584525453267,4.436319828956809e-10,1.2415330885309392
531.7118997912318,7.97023999953793e-10,2.1049397576962985,4.4368522642768243e-10,1.2418331997200103
532.6931106471816,7.970573861952036e-10,2.105025498130249,4.4373890965935696e-10,1.2421428679729714
533.6743215031316,7.970908266053086e-10,2.1051153909682254,4.437928168829254e-10,1.2424605051678148
534.6555323590815,7.971237532094922e-10,2.1052083084155906,4.4384595364767953e-10,1.242779370652903
535.6367432150313,7.971581687353069e-10,2.1053248303186747,4.450432441704891e-10,1.250874453303823
536.6179540709812,7.97189632130734e-10,2.105434531873385,4.4509885624425843e-10,1.2512102037600037
537.599164926931,7.972203576556828e-10,2.10555098363632,4.4515413513572997e-10,1.251549716981521
538.5803757828811,7.972506870221494e-10,2.1056651805486397,4.4520993967362053e-10,1.2518920055599339
539.5615866388309,7.97281203704155e-10,2.1057775045940947,4.452661989080454e-10,1.2522328897860682
540.5427974947808,7.973120666686995e-10,2.105886749026689,4.453219755962889e-10,1.2525667247041408
541.5240083507308,7.973430906275258e-10,2.105990022274516,4.4537772832057503e-10,1.2528955863181637
542.5052192066806,7.973742337759967e-10,2.106089049994497,4.4543452738743363e-10,1.2532269831490255
543.4864300626305,7.974059505200488e-10,2.106191792710673,4.454923730780928e-10,1.2535652690995536
544.4676409185804,7.974389482544022e-10,2.1063110347416876,4.4555134075162676e-10,1.253912387588845
545.4488517745302,7.974757820701081e-10,2.1064751657678915,4.4787664552545496e-10,1.268454063207351
546.4300626304802,7.975109144894529e-10,2.1066178919814087,4.479451429531706e-10,1.2688314834221242
547.4112734864301,7.97544540667528e-10,2.106749244275004,4.4801234703978897e-10,1.269196604860515
548.3924843423799,7.975762891310325e-10,2.1068652776929726,4.4807790784158966e-10,1.2695480802231758
549.37369519833,7.976059789371739e-10,2.106945072892587,4.4814133633670543e-10,1.2698852323370817
550.3549060542798,7.976335978503097e-10,2.106987822513521,4.482030128715747e-10,1.2702143492803155
551.3361169102296,7.976593622176093e-10,2.1070269879073154,4.4826390316656145e-10,1.2705463997902082
552.3173277661796,7.976839415909906e-10,2.1070919908207295,4.483239094865806e-10,1.2708867936488295
553.2985386221294,7.977082138566617e-10,2.107192417320965,4.483827877766955e-10,1.2712379322743428
554.2797494780793,7.977327271650652e-10,2.107327210345415,4.4844156913943233e-10,1.271600700946601
555.2609603340293,7.977575744147007e-10,2.1074928282335197,4.526699027323556e-10,1.2953782251686472
